#  BAND   46          
#EF=   0.00000     NDOS= 5     NENRG=  592    Gaussian bradening: 0.00300
# ENERGY    2:DZ2          2:DXY          2:DX2Y2        2:DXZ+DYZ      2:DXZ+DYZ   
  -9.29051    0.00000000    0.00000000    0.00000000    0.00000000    0.00000000
  -9.26330    0.00000000    0.00000000    0.00000000    0.00000000    0.00000000
  -9.23609    0.00000000    0.00000000    0.00000000    0.00000000    0.00000000
  -9.20888    0.00000000    0.00000000    0.00000000    0.00000000    0.00000000
  -9.18167    0.00000000    0.00000000    0.00000000    0.00000000    0.00000000
  -9.15446    0.00000000    0.00000000    0.00000000    0.00000000    0.00000000
  -9.12725    0.00000000    0.00000000    0.00000000    0.00000000    0.00000000
  -9.10003    0.00000000    0.00000000    0.00000000    0.00000000    0.00000000
  -9.07282    0.00000000    0.00000000    0.00000000    0.00000000    0.00000000
  -9.04561    0.00000000    0.00000000    0.00000000    0.00000000    0.00000000
  -9.01840    0.00000000    0.00000000    0.00000000    0.00000000    0.00000000
  -8.99119    0.00000000    0.00000000    0.00000000    0.00000000    0.00000000
  -8.96398    0.00000000    0.00000000    0.00000000    0.00000000    0.00000000
  -8.93677    0.00000000    0.00000000    0.00000000    0.00000000    0.00000000
  -8.90955    0.00000000    0.00000000    0.00000000    0.00000000    0.00000000
  -8.88234    0.00000000    0.00000000    0.00000000    0.00000000    0.00000000
  -8.85513    0.00000000    0.00000000    0.00000000    0.00000000    0.00000000
  -8.82792    0.00000000    0.00000000    0.00000000    0.00000000    0.00000000
  -8.80071    0.00000000    0.00000000    0.00000000    0.00000000    0.00000000
  -8.77350    0.00000000    0.00000000    0.00000000    0.00000000    0.00000000
  -8.74629    0.00000195    0.00000000    0.00000000    0.00000000    0.00000000
  -8.71908    0.00001188    0.00000000    0.00000001    0.00000000    0.00000000
  -8.69186    0.00004519    0.00000000    0.00000003    0.00000000    0.00000000
  -8.66465    0.00013349    0.00000000    0.00000012    0.00000000    0.00000000
  -8.63744    0.00032035    0.00000000    0.00000038    0.00000001    0.00000001
  -8.61023    0.00063976    0.00000001    0.00000101    0.00000003    0.00000003
  -8.58302    0.00108911    0.00000004    0.00000232    0.00000008    0.00000008
  -8.55581    0.00162301    0.00000009    0.00000471    0.00000018    0.00000018
  -8.52859    0.00217922    0.00000019    0.00000861    0.00000035    0.00000035
  -8.50138    0.00271148    0.00000036    0.00001443    0.00000062    0.00000062
  -8.47417    0.00320198    0.00000061    0.00002261    0.00000102    0.00000102
  -8.44696    0.00365445    0.00000096    0.00003370    0.00000156    0.00000156
  -8.41975    0.00408313    0.00000143    0.00004835    0.00000225    0.00000225
  -8.39254    0.00450326    0.00000201    0.00006710    0.00000312    0.00000312
  -8.36533    0.00492547    0.00000273    0.00009030    0.00000417    0.00000417
  -8.33812    0.00535298    0.00000359    0.00011818    0.00000543    0.00000543
  -8.31090    0.00578442    0.00000460    0.00015121    0.00000689    0.00000689
  -8.28369    0.00622030    0.00000577    0.00019034    0.00000858    0.00000858
  -8.25648    0.00666522    0.00000710    0.00023690    0.00001050    0.00001050
  -8.22927    0.00712610    0.00000863    0.00029222    0.00001269    0.00001269
  -8.20206    0.00760941    0.00001036    0.00035723    0.00001515    0.00001515
  -8.17485    0.00811916    0.00001235    0.00043235    0.00001790    0.00001790
  -8.14764    0.00865683    0.00001460    0.00051788    0.00002097    0.00002097
  -8.12042    0.00922323    0.00001716    0.00061453    0.00002438    0.00002438
  -8.09321    0.00982149    0.00002002    0.00072392    0.00002812    0.00002812
  -8.06600    0.01045892    0.00002323    0.00084853    0.00003222    0.00003222
  -8.03879    0.01114770    0.00002683    0.00099113    0.00003670    0.00003670
  -8.01158    0.01190500    0.00003086    0.00115418    0.00004158    0.00004158
  -7.98437    0.01275600    0.00003539    0.00133970    0.00004688    0.00004688
  -7.95716    0.01373174    0.00004050    0.00154947    0.00005264    0.00005264
  -7.92994    0.01487043    0.00004625    0.00178561    0.00005887    0.00005887
  -7.90273    0.01619013    0.00005275    0.00205105    0.00006558    0.00006558
  -7.87552    0.01764662    0.00006009    0.00235001    0.00007277    0.00007277
  -7.84831    0.01910879    0.00006842    0.00268791    0.00008043    0.00008043
  -7.82110    0.02039799    0.00007787    0.00307076    0.00008858    0.00008858
  -7.79389    0.02138413    0.00008857    0.00350443    0.00009721    0.00009721
  -7.76668    0.02205393    0.00010065    0.00399436    0.00010636    0.00010636
  -7.73946    0.02249280    0.00011424    0.00454599    0.00011603    0.00011603
  -7.71225    0.02281356    0.00012952    0.00516554    0.00012625    0.00012625
  -7.68504    0.02309981    0.00014670    0.00586103    0.00013705    0.00013705
  -7.65783    0.02339139    0.00016605    0.00664290    0.00014847    0.00014847
  -7.63062    0.02369849    0.00018788    0.00752387    0.00016057    0.00016057
  -7.60341    0.02402432    0.00021312    0.00851762    0.00017340    0.00017340
  -7.57620    0.02437104    0.00024762    0.00963701    0.00018702    0.00018702
  -7.54899    0.02474439    0.00030660    0.01089426    0.00020150    0.00020150
  -7.52177    0.02514693    0.00042574    0.01230288    0.00021689    0.00021689
  -7.49456    0.02557833    0.00066944    0.01388236    0.00023327    0.00023327
  -7.46735    0.02604122    0.00111318    0.01566324    0.00025076    0.00025076
  -7.44014    0.02654390    0.00179824    0.01768909    0.00026949    0.00026949
  -7.41293    0.02709902    0.00269126    0.02001265    0.00028967    0.00028967
  -7.38572    0.02771834    0.00369473    0.02268738    0.00031149    0.00031149
  -7.35851    0.02840950    0.00470614    0.02576454    0.00033518    0.00033518
  -7.33129    0.02917670    0.00566680    0.02929923    0.00036097    0.00036097
  -7.30408    0.03002633    0.00656452    0.03337354    0.00038906    0.00038906
  -7.27687    0.03097666    0.00741213    0.03813045    0.00041971    0.00041971
  -7.24966    0.03206604    0.00823143    0.04380740    0.00045321    0.00045321
  -7.22245    0.03335856    0.00904497    0.05077906    0.00048992    0.00048992
  -7.19524    0.03493217    0.00987252    0.05952435    0.00053023    0.00053023
  -7.16803    0.03688596    0.01072760    0.07069810    0.00057454    0.00057454
  -7.14081    0.03933658    0.01161908    0.08508307    0.00062319    0.00062319
  -7.11360    0.04235724    0.01255629    0.10313401    0.00067644    0.00067644
  -7.08639    0.04585014    0.01355147    0.12416793    0.00073451    0.00073451
  -7.05918    0.04945156    0.01462453    0.14589332    0.00079789    0.00079789
  -7.03197    0.05253994    0.01581433    0.16470337    0.00086817    0.00086817
  -7.00476    0.05442341    0.01720953    0.17684296    0.00095023    0.00095023
  -6.97755    0.05459267    0.01893259    0.17978929    0.00105112    0.00105112
  -6.95033    0.05302870    0.02117088    0.17339239    0.00118145    0.00118145
  -6.92312    0.05023955    0.02405215    0.16020824    0.00134805    0.00134805
  -6.89591    0.04689367    0.02740944    0.14428309    0.00154010    0.00154010
  -6.86870    0.04330239    0.03060841    0.12901729    0.00171829    0.00171829
  -6.84149    0.03930131    0.03275314    0.11574830    0.00182592    0.00182592
  -6.81428    0.03465859    0.03326733    0.10392577    0.00182321    0.00182321
  -6.78707    0.02950988    0.03233527    0.09238436    0.00171590    0.00171590
  -6.75985    0.02433847    0.03075257    0.08050235    0.00154967    0.00154967
  -6.73264    0.01965245    0.02939716    0.06861920    0.00138180    0.00138180
  -6.70543    0.01575365    0.02883219    0.05771646    0.00125967    0.00125967
  -6.67822    0.01272565    0.02923574    0.04881081    0.00121695    0.00121695
  -6.65101    0.01048321    0.03052410    0.04235043    0.00127909    0.00127909
  -6.62380    0.00886391    0.03253684    0.03815563    0.00147479    0.00147479
  -6.59659    0.00767315    0.03512169    0.03573184    0.00186875    0.00186875
  -6.56937    0.00676199    0.03823450    0.03458696    0.00261361    0.00261361
  -6.54216    0.00603473    0.04191373    0.03439767    0.00401361    0.00401361
  -6.51495    0.00543148    0.04626912    0.03497328    0.00659025    0.00659025
  -6.48774    0.00491753    0.05145386    0.03622460    0.01093876    0.01093876
  -6.46053    0.00447147    0.05757005    0.03811499    0.01730382    0.01730382
  -6.43332    0.00407844    0.06453326    0.04064031    0.02514794    0.02514794
  -6.40611    0.00372755    0.07205331    0.04383498    0.03323398    0.03323399
  -6.37889    0.00341156    0.07983427    0.04781239    0.04033959    0.04033959
  -6.35168    0.00312618    0.08783062    0.05279981    0.04597946    0.04597946
  -6.32447    0.00286957    0.09626188    0.05918869    0.05046858    0.05046858
  -6.29726    0.00264086    0.10508779    0.06816274    0.05431506    0.05431506
  -6.27005    0.00243757    0.11342070    0.08189492    0.05761407    0.05761406
  -6.24284    0.00225323    0.11949959    0.10577723    0.05991965    0.05991965
  -6.21563    0.00207760    0.12156945    0.15012585    0.06064995    0.06064995
  -6.18842    0.00190175    0.11908382    0.22884901    0.05963067    0.05963067
  -6.16120    0.00172416    0.11307548    0.35182628    0.05728191    0.05728191
  -6.13399    0.00155449    0.10539404    0.51212859    0.05436129    0.05436129
  -6.10678    0.00141199    0.09763332    0.67968398    0.05154488    0.05154488
  -6.07957    0.00131797    0.09067202    0.81027198    0.04921953    0.04921953
  -6.05236    0.00128588    0.08486215    0.86786723    0.04753674    0.04753674
  -6.02515    0.00131578    0.08033862    0.84460932    0.04656066    0.04656066
  -5.99794    0.00139824    0.07711782    0.76259780    0.04637126    0.04637126
  -5.97072    0.00151959    0.07503755    0.65718931    0.04703368    0.04703368
  -5.94351    0.00166125    0.07383685    0.55683470    0.04850745    0.04850745
  -5.91630    0.00179660    0.07324132    0.47466967    0.05053250    0.05053250
  -5.88909    0.00189336    0.07299471    0.41045132    0.05255816    0.05255816
  -5.86188    0.00192421    0.07275371    0.35731143    0.05381794    0.05381794
  -5.83467    0.00187689    0.07201380    0.30705377    0.05357760    0.05357760
  -5.80746    0.00175956    0.07026401    0.25430712    0.05150608    0.05150608
  -5.78024    0.00160119    0.06736663    0.19965333    0.04793521    0.04793521
  -5.75303    0.00144373    0.06380224    0.14835119    0.04371609    0.04371609
  -5.72582    0.00132582    0.06044696    0.10617259    0.03971698    0.03971698
  -5.69861    0.00126889    0.05806445    0.07556137    0.03640084    0.03640084
  -5.67140    0.00127638    0.05696643    0.05534416    0.03379563    0.03379563
  -5.64419    0.00134205    0.05705550    0.04277094    0.03173180    0.03173180
  -5.61698    0.00145791    0.05805216    0.03525263    0.03008843    0.03008843
  -5.58976    0.00161852    0.05966451    0.03098385    0.02888414    0.02888414
  -5.56255    0.00182390    0.06165649    0.02872522    0.02826624    0.02826624
  -5.53534    0.00208218    0.06387560    0.02768083    0.02848835    0.02848835
  -5.50813    0.00240448    0.06622449    0.02733081    0.02980823    0.02980823
  -5.48092    0.00279471    0.06856035    0.02727534    0.03236288    0.03236288
  -5.45371    0.00324005    0.07059953    0.02722417    0.03611304    0.03611304
  -5.42650    0.00371083    0.07193153    0.02704975    0.04090874    0.04090874
  -5.39928    0.00416839    0.07219769    0.02679803    0.04669345    0.04669345
  -5.37207    0.00457615    0.07134813    0.02665049    0.05369966    0.05369966
  -5.34486    0.00490709    0.06976067    0.02684765    0.06287490    0.06287490
  -5.31765    0.00514483    0.06804347    0.02763613    0.07627597    0.07627597
  -5.29044    0.00528309    0.06664010    0.02921533    0.09680796    0.09680796
  -5.26323    0.00532719    0.06558540    0.03163962    0.12727819    0.12727819
  -5.23602    0.00529663    0.06462760    0.03464406    0.16865888    0.16865888
  -5.20881    0.00522379    0.06348933    0.03753539    0.21830243    0.21830243
  -5.18159    0.00514748    0.06195924    0.03936959    0.26896906    0.26896906
  -5.15438    0.00510528    0.05985467    0.03944871    0.31034839    0.31034839
  -5.12717    0.00512841    0.05712133    0.03780399    0.33368835    0.33368835
  -5.09996    0.00524199    0.05413360    0.03521612    0.33699816    0.33699816
  -5.07275    0.00546780    0.05188766    0.03278053    0.32641852    0.32641852
  -5.04554    0.00582547    0.05170974    0.03135556    0.31211677    0.31211677
  -5.01833    0.00632865    0.05465822    0.03122094    0.30273762    0.30273762
  -4.99111    0.00697354    0.06088425    0.03202213    0.30188966    0.30188966
  -4.96390    0.00772677    0.06940649    0.03295114    0.30781108    0.30781108
  -4.93669    0.00851900    0.07829031    0.03313133    0.31499475    0.31499469
  -4.90948    0.00925157    0.08530110    0.03201880    0.31657198    0.31657198
  -4.88227    0.00982136    0.08879049    0.02958577    0.30751488    0.30751488
  -4.85506    0.01015860    0.08839642    0.02621092    0.28689191    0.28689191
  -4.82785    0.01025782    0.08512893    0.02244519    0.25786555    0.25786555
  -4.80063    0.01017715    0.08073497    0.01880239    0.22560318    0.22560318
  -4.77342    0.01000154    0.07675294    0.01562452    0.19483489    0.19483489
  -4.74621    0.00979767    0.07385444    0.01304556    0.16834359    0.16834359
  -4.71900    0.00959500    0.07182633    0.01102859    0.14681107    0.14681107
  -4.69179    0.00939724    0.07005816    0.00946289    0.12972249    0.12972249
  -4.66458    0.00919978    0.06802519    0.00823800    0.11612152    0.11612152
  -4.63737    0.00899888    0.06556401    0.00726884    0.10518043    0.10518043
  -4.61015    0.00879112    0.06280290    0.00649595    0.09625418    0.09625418
  -4.58294    0.00857256    0.06003936    0.00587901    0.08887541    0.08887541
  -4.55573    0.00834055    0.05761958    0.00539304    0.08289881    0.08289881
  -4.52852    0.00809731    0.05581451    0.00503592    0.07827362    0.07827362
  -4.50131    0.00785406    0.05470174    0.00484902    0.07463191    0.07463191
  -4.47410    0.00764094    0.05407977    0.00506287    0.07102755    0.07102755
  -4.44689    0.00751780    0.05356369    0.00614891    0.06636684    0.06636684
  -4.41967    0.00757184    0.05282839    0.00905811    0.06025509    0.06025509
  -4.39246    0.00787656    0.05179563    0.01506163    0.05330732    0.05330732
  -4.36525    0.00842638    0.05059896    0.02497827    0.04658455    0.04658455
  -4.33804    0.00910851    0.04940943    0.03808187    0.04083141    0.04083141
  -4.31083    0.00976530    0.04831644    0.05184592    0.03623381    0.03623381
  -4.28362    0.01029420    0.04732385    0.06325698    0.03264238    0.03264238
  -4.25641    0.01071015    0.04639296    0.07070944    0.02987720    0.02987720
  -4.22919    0.01108596    0.04547156    0.07458556    0.02780510    0.02780510
  -4.20198    0.01143079    0.04450423    0.07620455    0.02630506    0.02630506
  -4.17477    0.01161559    0.04347267    0.07651773    0.02526392    0.02526392
  -4.14756    0.01143306    0.04240159    0.07572100    0.02453854    0.02453854
  -4.12035    0.01075687    0.04133600    0.07365397    0.02398187    0.02398187
  -4.09314    0.00965503    0.04029646    0.07039256    0.02348297    0.02348297
  -4.06593    0.00834362    0.03924733    0.06627552    0.02299809    0.02299809
  -4.03871    0.00704496    0.03810380    0.06178386    0.02254678    0.02254678
  -4.01150    0.00588754    0.03676623    0.05733745    0.02217515    0.02217515
  -3.98429    0.00490357    0.03516464    0.05323870    0.02192392    0.02192393
  -3.95708    0.00407524    0.03328750    0.04970788    0.02181480    0.02181480
  -3.92987    0.00337849    0.03117741    0.04692079    0.02185844    0.02185844
  -3.90266    0.00278999    0.02890190    0.04496884    0.02207218    0.02207218
  -3.87545    0.00229413    0.02651623    0.04375985    0.02246583    0.02246583
  -3.84824    0.00187758    0.02404447    0.04296840    0.02301417    0.02301417
  -3.82102    0.00152678    0.02148736    0.04202831    0.02357578    0.02357578
  -3.79381    0.00122916    0.01885206    0.04027125    0.02385512    0.02385512
  -3.76660    0.00097524    0.01618248    0.03715700    0.02347964    0.02347964
  -3.73939    0.00075892    0.01356328    0.03252916    0.02219828    0.02219828
  -3.71218    0.00057674    0.01110373    0.02678849    0.02006816    0.02006816
  -3.68497    0.00042623    0.00889896    0.02076334    0.01743967    0.01743967
  -3.65776    0.00030505    0.00699808    0.01529920    0.01473938    0.01473938
  -3.63054    0.00021036    0.00539982    0.01087111    0.01225746    0.01225746
  -3.60333    0.00013876    0.00407186    0.00751530    0.01009695    0.01009695
  -3.57612    0.00008660    0.00297836    0.00503844    0.00824159    0.00824159
  -3.54891    0.00005036    0.00209221    0.00323900    0.00663753    0.00663753
  -3.52170    0.00002681    0.00139304    0.00198680    0.00524790    0.00524790
  -3.49449    0.00001280    0.00086357    0.00116369    0.00405310    0.00405310
  -3.46728    0.00000539    0.00048982    0.00066167    0.00305444    0.00305444
  -3.44006    0.00000197    0.00025227    0.00037397    0.00224762    0.00224762
  -3.41285    0.00000062    0.00011968    0.00021539    0.00161401    0.00161401
  -3.38564    0.00000378    0.00005537    0.00012998    0.00112736    0.00112736
  -3.35843    0.00003332    0.00002684    0.00008075    0.00076178    0.00076178
  -3.33122    0.00015348    0.00001417    0.00005055    0.00049473    0.00049473
  -3.30401    0.00052570    0.00000837    0.00003118    0.00030676    0.00030676
  -3.27680    0.00144827    0.00000505    0.00001868    0.00018024    0.00018024
  -3.24958    0.00332211    0.00000296    0.00001109    0.00009978    0.00009978
  -3.22237    0.00649512    0.00000173    0.00000724    0.00005262    0.00005262
  -3.19516    0.01105310    0.00000115    0.00000639    0.00002890    0.00002890
  -3.16795    0.01672850    0.00000107    0.00000800    0.00002138    0.00002138
  -3.14074    0.02303127    0.00000148    0.00001167    0.00002498    0.00002498
  -3.11353    0.02951313    0.00000247    0.00001703    0.00003653    0.00003653
  -3.08632    0.03596672    0.00000429    0.00002377    0.00005447    0.00005447
  -3.05910    0.04244870    0.00000732    0.00003167    0.00007848    0.00007848
  -3.03189    0.04916681    0.00001205    0.00004059    0.00010907    0.00010907
  -3.00468    0.05635630    0.00001903    0.00005048    0.00014735    0.00014735
  -2.97747    0.06421484    0.00002891    0.00006136    0.00019482    0.00019482
  -2.95026    0.07287022    0.00004239    0.00007317    0.00025320    0.00025320
  -2.92305    0.08240267    0.00006028    0.00008582    0.00032435    0.00032435
  -2.89584    0.09291264    0.00008349    0.00009930    0.00041020    0.00041020
  -2.86862    0.10458452    0.00011309    0.00011367    0.00051306    0.00051306
  -2.84141    0.11815792    0.00015046    0.00012899    0.00063595    0.00063595
  -2.81420    0.13519469    0.00019742    0.00014524    0.00078341    0.00078341
  -2.78699    0.15952089    0.00025682    0.00016243    0.00096321    0.00096321
  -2.75978    0.19843014    0.00033338    0.00018072    0.00118998    0.00118998
  -2.73257    0.26175508    0.00043377    0.00020052    0.00149069    0.00149069
  -2.70536    0.35784337    0.00056651    0.00022243    0.00191127    0.00191127
  -2.67814    0.48678470    0.00073655    0.00024708    0.00251923    0.00251923
